! Angle=0.mrad, 1.5GeV, 400.mA, 1.04T 
! Photon Energy (eV), Photons/sec/mr^2/0.1%BW
  0.  0.
   100.0000    5.44547E+12
    200.000    8.36710E+12
    300.000    1.05640E+13
    400.000    1.22927E+13
    500.000    1.36708E+13
    600.000    1.47688E+13
    700.000    1.56353E+13
    800.000    1.63065E+13
    900.000    1.68114E+13
   1000.000    1.71732E+13
    1100.00    1.74118E+13
    1200.00    1.75437E+13
    1300.00    1.75836E+13
    1400.00    1.75438E+13
    1500.00    1.74355E+13
    1600.00    1.72682E+13
    1700.00    1.70505E+13
    1800.00    1.67899E+13
    1900.00    1.64932E+13
    2000.00    1.61661E+13
    2100.00    1.58141E+13
    2200.00    1.54417E+13
    2300.00    1.50530E+13
    2400.00    1.46518E+13
    2500.00    1.42412E+13
    2600.00    1.38242E+13
    2700.00    1.34031E+13
    2800.00    1.29803E+13
    2900.00    1.25576E+13
    3000.00    1.21368E+13
    3100.00    1.17194E+13
    3200.00    1.13065E+13
    3300.00    1.08993E+13
    3400.00    1.04987E+13
    3500.00    1.01055E+13
    3600.00    9.72032E+12
    3700.00    9.34379E+12
    3800.00    8.97630E+12
    3900.00    8.61822E+12
    4000.00    8.26980E+12
    4100.00    7.93126E+12
    4200.00    7.60272E+12
    4300.00    7.28426E+12
    4400.00    6.97591E+12
    4500.00    6.67765E+12
    4600.00    6.38943E+12
    4700.00    6.11117E+12
    4800.00    5.84274E+12
    4900.00    5.58400E+12
    5000.00    5.33480E+12
    5100.00    5.09496E+12
    5200.00    4.86426E+12
    5300.00    4.64253E+12
    5400.00    4.42952E+12
    5500.00    4.22502E+12
    5600.00    4.02879E+12
    5700.00    3.84061E+12
    5800.00    3.66023E+12
    5900.00    3.48741E+12
    6000.00    3.32191E+12
    6100.00    3.16348E+12
    6200.00    3.01190E+12
    6300.00    2.86693E+12
    6400.00    2.72832E+12
    6500.00    2.59585E+12
    6600.00    2.46930E+12
    6700.00    2.34844E+12
    6800.00    2.23305E+12
    6900.00    2.12292E+12
    7000.00    2.01785E+12
    7100.00    1.91762E+12
    7200.00    1.82205E+12
    7300.00    1.73095E+12
    7400.00    1.64413E+12
    7500.00    1.56140E+12
    7600.00    1.48260E+12
    7700.00    1.40756E+12
    7800.00    1.33611E+12
    7900.00    1.26811E+12
    8000.00    1.20339E+12
    8100.00    1.14181E+12
    8200.00    1.08324E+12
    8300.00    1.02753E+12
    8400.00    9.74560E+11
    8500.00    9.24201E+11
    8600.00    8.76335E+11
    8700.00    8.30846E+11
    8800.00    7.87624E+11
    8900.00    7.46563E+11
    9000.00    7.07561E+11
    9100.00    6.70522E+11
    9200.00    6.35352E+11
    9300.00    6.01962E+11
    9400.00    5.70267E+11
    9500.00    5.40184E+11
    9600.00    5.11638E+11
    9700.00    4.84551E+11
    9800.00    4.58854E+11
    9900.00    4.34478E+11
   10000.00    4.11359E+11
   10100.00    3.89435E+11
   10200.00    3.68646E+11
   10300.00    3.48935E+11
   10400.00    3.30251E+11
   10500.00    3.12540E+11
    10600.0    2.95754E+11
    10700.0    2.79847E+11
    10800.0    2.64774E+11
    10900.0    2.50494E+11
    11000.0    2.36965E+11
    11100.0    2.24150E+11
    11200.0    2.12012E+11
    11300.0    2.00516E+11
    11400.0    1.89631E+11
    11500.0    1.79323E+11
    11600.0    1.69564E+11
    11700.0    1.60325E+11
    11800.0    1.51579E+11
    11900.0    1.43300E+11
    12000.0    1.35465E+11
    12100.0    1.28050E+11
    12200.0    1.21034E+11
    12300.0    1.14394E+11
    12400.0    1.08113E+11
    12500.0    1.02170E+11
    12600.0    9.65477E+10
    12700.0    9.12297E+10
    12800.0    8.61996E+10
    12900.0    8.14423E+10
    13000.0    7.69432E+10
    13100.0    7.26887E+10
    13200.0    6.86656E+10
    13300.0    6.48619E+10
    13400.0    6.12655E+10
    13500.0    5.78656E+10
    13600.0    5.46515E+10
    13700.0    5.16135E+10
    13800.0    4.87418E+10
    13900.0    4.60276E+10
    14000.0    4.34625E+10
    14100.0    4.10384E+10
    14200.0    3.87477E+10
    14300.0    3.65831E+10
    14400.0    3.45379E+10
    14500.0    3.26056E+10
    14600.0    3.07800E+10
    14700.0    2.90553E+10
    14800.0    2.74261E+10
    14900.0    2.58871E+10
    15000.0    2.44335E+10
