Be Density=1.848, Angle=90.deg
 Photon Energy (eV), Atten Length (microns)
   30.0000  0.117143
   31.0706  0.132681
   32.1795  0.150279
   33.3279  0.170213
   34.5173  0.190182
   35.7491  0.207110
   37.0249  0.225546
   38.3462  0.245623
   39.7147  0.260978
   41.1320  0.274854
   42.6000  0.292761
   44.1202  0.309409
   45.6948  0.330639
   47.3255  0.350887
   49.0145  0.364441
   50.7637  0.377264
   52.5753  0.383934
   54.4516  0.402087
   56.3948  0.423939
   58.4074  0.451920
   60.4919  0.475436
   62.6507  0.493669
   64.8865  0.509861
   67.2022  0.526979
   69.6005  0.548736
   72.0843  0.572192
   74.6569  0.592190
   77.3212  0.606429
   80.0806  0.618182
   82.9385  0.630655
   85.8984  0.650469
   88.9639  0.675030
   92.1388  0.701759
   95.4270  0.728270
   98.8326  0.752474
   102.360  0.781463
   106.013  0.810858
   109.796  0.765010
   113.714  3.389375E-02
   117.773  3.030219E-02
   121.976  2.569712E-02
   126.329  2.198007E-02
   130.837  4.500124E-02
   135.506  5.345395E-02
   140.342  5.707590E-02
   145.351  5.802179E-02
   150.538  5.848685E-02
   155.910  5.820064E-02
   161.474  5.919017E-02
   167.237  7.137070E-02
   173.205  8.143269E-02
   179.386  9.248395E-02
   185.788  9.875641E-02
   192.419  0.103845
   199.286  0.110470
   206.398  0.116688
   213.763  0.126856
   221.392  0.137143
   229.293  0.150834
   237.476  0.168678
   245.951  0.183061
   254.728  0.195630
   263.819  0.214733
   273.234  0.235703
   282.985  0.258720
   293.084  0.283985
   303.544  0.311719
   314.376  0.342159
   325.596  0.374961
   337.216  0.410873
   349.250  0.450226
   361.714  0.493349
   374.623  0.540602
   387.992  0.592393
   401.839  0.651898
   416.179  0.719314
   431.032  0.793704
   446.414  0.875784
   462.346  0.966354
   478.846  1.06629
   495.934  1.17656
   513.633  1.29824
   531.964  1.43249
   550.948  1.58064
   570.610  1.74614
   590.974  1.93141
   612.064  2.13634
   633.907  2.36301
   656.530  2.62654
   679.960  2.91507
   704.226  3.20835
   729.358  3.55294
   755.387  3.94069
   782.345  4.37076
   810.265  4.84776
   839.182  5.37685
   869.130  5.96363
   900.148  6.61183
   932.272  7.32904
   965.542  8.13425
   1000.00  9.03007
